,real_X,real_Y,real_Z,real_R,real_G,real_B,aligned_x,aligned_y,aligned_z,aligned_R,aligned_G,aligned_B,ID
0,136.9816,57.102399999999996,21.75,2.938593707466362,12.838156611189998,7.1633703344399455,16.06733962884998,111.847374096451,17.98401414648162,2.938593707466362,12.838156611189998,7.1633703344399455,
1,137.944,57.423199999999994,16.5,20.71903225066996,10.236417353671992,31.796343936310095,18.79359615563905,110.47749889589024,14.038846881163508,20.71903225066996,10.236417353671992,31.796343936310095,
2,139.22719999999998,45.2328,7.5,2.1368232691786666,9.214305502504205,3.5197429891633205,31.900695250362133,105.47863619743516,14.434229747605812,2.1368232691786666,9.214305502504205,3.5197429891633205,
3,140.18959999999998,57.74399999999999,21.0,11.380764792966215,14.952069757923375,1.7235886640269558,15.651508565864958,109.12999169947996,16.755310076215423,11.380764792966215,14.952069757923375,1.7235886640269558,
4,140.8312,55.1776,14.25,48.78099759073931,27.93753623071413,2.2880943090698134,21.197203393472336,107.19093940787633,13.411892852411171,48.78099759073931,27.93753623071413,2.2880943090698134,
5,141.152,55.819199999999995,17.25,16.521528191399085,64.38511565076547,3.4684242941594245,18.979297461412415,107.41144320133309,15.111131295491923,16.521528191399085,64.38511565076547,3.4684242941594245,
6,141.47279999999998,57.102399999999996,22.5,3.4102233770473593,14.859150498726304,0.645896068945137,15.024785917075107,108.0431648295294,18.021204212127444,3.4102233770473593,14.859150498726304,0.645896068945137,
7,142.43519999999998,48.761599999999994,9.0,10.013038751181323,7.17008180016863,6.958095554424362,28.270472242467385,103.69563919263014,13.161597129025594,10.013038751181323,7.17008180016863,6.958095554424362,
8,143.71839999999997,56.7816,22.5,5.202416121455149,19.249585495787937,0.9024895439646177,14.933684885389354,106.02269840861902,17.957494739535868,5.202416121455149,19.249585495787937,0.9024895439646177,
9,144.0392,54.535999999999994,16.5,0.9105861282680733,14.02287716595266,3.1605121241360474,19.873313735672113,104.52359264062804,14.992647148664489,0.9105861282680733,14.02287716595266,3.1605121241360474,
10,144.68079999999998,53.25279999999999,24.0,0.5804453595613752,11.003001242047834,1.415676494003579,16.250146573543816,104.54118870746596,20.871364379687556,0.5804453595613752,11.003001242047834,1.415676494003579,
11,145.3224,52.6112,20.25,1.2407268969747716,23.547101233652498,9.216118134595792,18.77665947400405,103.39955427048004,18.544886919733102,1.2407268969747716,23.547101233652498,9.216118134595792,
12,146.2848,55.819199999999995,24.75,0.250304590854677,4.17343569106307,1.1590830189840984,13.907254236513438,103.8365357612872,19.786918419730018,0.250304590854677,4.17343569106307,1.1590830189840984,
13,147.56799999999998,51.327999999999996,15.0,0.7690972273937741,8.168963836537149,40.520522086972434,22.38578431557685,100.54414327265985,15.357143908402108,0.7690972273937741,8.168963836537149,40.520522086972434,
14,148.2096,52.6112,21.0,11.097786991217617,4.219895320661606,7.11205163943605,17.949972451456986,100.98515085957335,18.755620794563594,11.097786991217617,4.219895320661606,7.11205163943605,
15,148.2096,48.12,30.0,2.5141270048434645,1.3393982855523865,1.2104017139879946,15.648021333477743,100.98578130376264,27.542499614656037,2.5141270048434645,1.3393982855523865,1.2104017139879946,ADAR
16,149.81359999999998,57.74399999999999,20.25,19.20981730801077,44.75592214538409,3.673699074175009,14.794435412435064,100.7039094334702,15.190934489744485,19.20981730801077,44.75592214538409,3.673699074175009,
17,154.3048,44.59119999999999,30.0,1.1935639300166718,1.9898330999318876,0.13270911890617565,17.149963579977197,94.88239860352145,28.854803602690964,1.1935639300166718,1.9898330999318876,0.13270911890617565,RMGR
18,156.22959999999998,55.4984,23.25,1.9953343683043672,10.70101364965735,0.5432586789373447,13.656247060408177,94.97050697166478,17.843973200326207,1.9953343683043672,10.70101364965735,0.5432586789373447,
19,156.5504,45.553599999999996,28.5,3.8818530466283567,9.446603650496884,0.3893025939256563,17.090667179232668,92.98639081272866,27.02786122630571,3.8818530466283567,9.446603650496884,0.3893025939256563,AQR
20,157.19199999999998,42.987199999999994,9.0,13.786076107829302,2.2453610627238345,1.2617204089918905,30.084520699768987,89.56413731248186,14.791527569332075,13.786076107829302,2.2453610627238345,1.2617204089918905,ADEL
21,158.796,27.909599999999998,12.0,0.5804453595613752,4.568342542650624,0.5945773739412409,38.038425744753305,85.01062351914132,25.135272118146656,0.5804453595613752,4.568342542650624,0.5945773739412409,M5
22,159.11679999999998,44.912,9.75,3.8818530466283567,5.381386060625001,5.469853399311374,28.12067969135944,88.4320467501211,14.030876568071548,3.8818530466283567,5.381386060625001,5.469853399311374,
23,161.0416,42.0248,30.75,4.542134584041753,0.5031249527787421,0.7998521539568254,17.49409516914892,88.53455535826296,30.083047217614016,4.542134584041753,0.5031249527787421,0.7998521539568254,ADER
24,161.36239999999998,53.8944,23.25,7.371912601527738,4.7309512462455,1.6209512740191636,14.021035321045147,90.14943711996952,18.18489231227011,7.371912601527738,4.7309512462455,1.6209512740191636,
25,162.64559999999997,52.2904,20.25,4.8251123857903515,7.564988651756184,1.0051269339724098,16.656411563576853,88.31491280302934,16.849865640805604,4.8251123857903515,7.564988651756184,1.0051269339724098,
26,163.28719999999998,43.6288,8.25,9.588572048558426,4.986479209037447,4.0329299392022815,29.280129596173893,84.34510437468396,13.250444642533466,9.588572048558426,4.986479209037447,4.0329299392022815,
27,163.60799999999998,54.215199999999996,17.25,52.412546046512986,45.03467992297531,13.629525904930858,17.012725478388973,87.58047010467662,13.577777268241356,52.412546046512986,45.03467992297531,13.629525904930858,
28,164.8912,45.553599999999996,10.5,8.59814974243833,48.1474751060772,5.7777655693347505,26.48320796173593,83.66546924336654,13.570727865835686,8.59814974243833,48.1474751060772,5.7777655693347505,
29,167.77839999999998,54.215199999999996,18.0,3.5988752448797583,13.953187721554857,9.216118134595792,16.013345104459674,84.05422200895802,13.64967609572411,3.5988752448797583,13.953187721554857,9.216118134595792,
30,168.0992,41.383199999999995,7.5,1.9481714013462674,21.851324753305942,1.1077643239802022,30.548442843059803,79.56527211929247,13.46146350548534,1.9481714013462674,21.851324753305942,1.1077643239802022,
31,168.0992,50.36559999999999,17.25,0.957749095226173,13.46536161077023,3.673699074175009,18.941646747349424,82.79215503796084,15.24287692572792,0.957749095226173,13.46536161077023,3.673699074175009,
32,168.0992,51.327999999999996,20.25,1.7595195335138685,10.445485686865403,1.466995189007475,16.55580181990186,83.3653582251101,16.797572270378623,1.7595195335138685,10.445485686865403,1.466995189007475,
33,170.66559999999998,54.215199999999996,19.5,2.797104806592063,3.778528839475516,11.884690274798391,14.748531099975608,81.7270657279715,14.383522701917506,2.797104806592063,3.778528839475516,11.884690274798391,
34,170.98639999999997,29.8344,14.25,1.4293787648071705,12.141262167211961,1.6722699690230596,33.81678396141176,75.1582697381254,24.31016620083003,1.4293787648071705,12.141262167211961,1.6722699690230596,I6
35,170.98639999999997,41.0624,31.5,2.561289971801564,12.443249759602443,1.2104017139879946,16.35093171369907,79.78079151342214,30.067943912832856,2.561289971801564,12.443249759602443,1.2104017139879946,FLPR
36,171.3072,44.912,12.75,0.1088156899803778,2.2918206923223705,0.2353465089139679,24.727584925480073,78.21851076408839,14.804394543719646,0.1088156899803778,2.2918206923223705,0.2353465089139679,
37,171.628,47.7992,19.5,3.646038211837858,5.2420071718293935,5.418534704307477,18.841257751102802,79.3984177645726,17.864433621746116,3.646038211837858,5.2420071718293935,5.418534704307477,
38,172.91119999999998,27.267999999999997,25.5,1.52370469872337,3.3603921730886936,17.940296285258135,28.674737871149006,74.2013038797943,33.38261948238777,1.52370469872337,3.3603921730886936,17.940296285258135,M1
39,173.87359999999998,47.47839999999999,17.25,6.617305130198142,12.350330500405372,7.522601199467219,20.064537665228045,77.1162099539016,16.23138595506584,6.617305130198142,12.350330500405372,7.522601199467219,
40,173.87359999999998,50.6864,19.5,5.438230956245648,13.02399512958414,3.1605121241360474,16.63903338708512,78.12533356855715,16.008205546484838,5.438230956245648,13.02399512958414,3.1605121241360474,
41,173.87359999999998,41.383199999999995,9.0,17.700602365351582,8.261883095734222,11.679415494782805,28.895068797965685,74.7364652974791,13.882931255146332,17.700602365351582,8.261883095734222,11.679415494782805,AVJL
42,174.19439999999997,47.157599999999995,18.75,3.457386344005459,22.408840308488372,8.754249879560726,19.356222696741682,76.93800482004954,17.42215451622168,3.457386344005459,22.408840308488372,8.754249879560726,
43,174.19439999999997,49.724,22.5,16.474365224440987,15.207597720715324,1.2104017139879946,15.476689121191157,77.97214624956644,18.60370329090044,16.474365224440987,15.207597720715324,1.2104017139879946,
44,174.5152,52.2904,16.5,18.172232034932577,7.030702911373022,8.856887269568519,17.249632972976002,77.59411381891792,12.950077796024487,18.172232034932577,7.030702911373022,8.856887269568519,
45,174.83599999999998,42.3456,10.5,30.811907179703304,66.9636250934842,3.006556039124359,27.25595782085542,74.30129071117904,14.287274851560419,30.811907179703304,66.9636250934842,3.006556039124359,AVDL
46,175.15679999999998,28.551199999999998,19.5,3.4102233770473593,1.687845507541405,0.3379838989217602,31.03309102879325,71.85655153196993,28.237748857558095,3.4102233770473593,1.687845507541405,0.3379838989217602,
47,175.4776,37.5336,14.25,1.335052830890971,1.7343051371399407,1.2104017139879946,28.145661233977222,73.06053068103151,19.522198888705642,1.335052830890971,1.7343051371399407,1.2104017139879946,
48,176.11919999999998,42.0248,27.75,9.730060949432724,2.9422555067018714,0.9024895439646177,17.217456218155462,75.12139179204192,26.359284485826468,9.730060949432724,2.9422555067018714,0.9024895439646177,
49,177.08159999999998,47.157599999999995,17.25,4.353482716209354,33.5359215973377,2.8525999541126708,19.843916620005615,74.26186001938228,16.06355019696346,4.353482716209354,33.5359215973377,2.8525999541126708,
50,177.08159999999998,38.495999999999995,24.75,2.3254751370110656,2.5008890255157814,0.7998521539568254,21.162679797931894,73.11639931136776,26.134477737800726,2.3254751370110656,2.5008890255157814,0.7998521539568254,
51,177.7232,38.81679999999999,28.5,13.597424239996903,21.57256697571473,0.13270911890617565,18.674585879322592,73.07145084105221,28.50137201067441,13.597424239996903,21.57256697571473,0.13270911890617565,AVDR
52,178.04399999999998,28.551199999999998,11.25,5.2967420553713485,26.28821937996611,14.861174585024367,35.46392778949014,68.39518256202098,22.17112995603373,5.2967420553713485,26.28821937996611,14.861174585024367,RIVL
53,178.04399999999998,34.9672,30.0,0.8634231613099735,8.192193651336417,0.3893025939256563,20.28850657640136,72.0711252598156,31.663911034766933,0.8634231613099735,8.192193651336417,0.3893025939256563,
54,178.04399999999998,48.761599999999994,20.25,8.88112754418693,17.78610716343406,16.91392238518021,16.906327012554968,74.15065613790156,17.155615535569424,8.88112754418693,17.78610716343406,16.91392238518021,
55,178.6856,42.666399999999996,14.25,1.335052830890971,27.49616974952804,1.1590830189840984,24.336130523790487,71.47673052883363,16.307081506064762,1.335052830890971,27.49616974952804,1.1590830189840984,
56,179.32719999999998,39.4584,12.0,0.20314162389657728,32.72287807936332,0.8511708489607215,27.6752881262423,69.91168457177216,16.460844390971886,0.20314162389657728,32.72287807936332,0.8511708489607215,
57,179.648,40.099999999999994,25.5,0.014489756064178332,9.864740316883706,0.18402781391007178,19.323604447064426,71.35364818411148,25.483661073133295,0.014489756064178332,9.864740316883706,0.18402781391007178,
58,180.28959999999998,45.2328,27.0,8.88112754418693,4.034056802267463,1.9288634440425403,14.983206475768199,72.16803166137788,23.5924392479137,8.88112754418693,4.034056802267463,1.9288634440425403,
59,180.6104,48.12,16.5,47.64908638374491,5.660143838216215,5.675128179326958,19.173799885941833,71.34125467369773,14.62088550459336,47.64908638374491,5.660143838216215,5.675128179326958,
60,180.6104,46.8368,22.5,36.94309288425627,6.496417170989861,6.393589909381504,16.513233363378646,71.74027882310125,19.522794796564483,36.94309288425627,6.496417170989861,6.393589909381504,
61,180.9312,27.909599999999998,13.5,0.34463052477087647,3.9875971726689268,1.877544749038644,34.18321146953547,66.00579696597569,23.78659301412398,0.34463052477087647,3.9875971726689268,1.877544749038644,
62,180.9312,50.044799999999995,19.5,26.661566087390526,19.272815310587205,6.906776859420465,16.11144462094913,71.8607113571125,15.60311650660622,26.661566087390526,19.272815310587205,6.906776859420465,
63,181.25199999999998,35.608799999999995,28.5,10.814809189469019,4.521882913052089,6.752820774408777,20.310802495353343,69.2664957329244,29.912094233137843,10.814809189469019,4.521882913052089,6.752820774408777,AVJR
64,181.57279999999997,31.438399999999998,12.0,0.7219342604356743,1.687845507541405,11.576778104775013,32.65088309215321,66.09750081111383,20.699179564787617,0.7219342604356743,1.687845507541405,11.576778104775013,AVHL
65,181.8936,43.308,15.75,12.41835006604441,5.776292912212555,1.6722699690230596,22.605918514994485,69.02108952162314,16.64771562988728,12.41835006604441,5.776292912212555,1.6722699690230596,
66,181.8936,31.759199999999996,27.0,3.646038211837858,15.718653646299217,5.726446874330854,23.634057782334537,67.63922046080404,30.94747356994181,3.646038211837858,15.718653646299217,5.726446874330854,RIVR
67,182.53519999999997,46.516,20.25,4.872275352748451,4.034056802267463,3.365786904151632,17.779686615349448,69.73603218363328,17.924455891721138,4.872275352748451,4.034056802267463,3.365786904151632,
68,183.49759999999998,38.1752,12.0,2.8914307405082624,7.518529022157648,0.49193998393344857,27.95848406718276,65.99923645617534,16.72663792815962,2.8914307405082624,7.518529022157648,0.49193998393344857,
69,183.49759999999998,37.212799999999994,26.25,1.335052830890971,16.949833830660417,0.5432586789373447,20.267408410079412,67.4327172571904,27.203535404855728,1.335052830890971,16.949833830660417,0.5432586789373447,
70,183.8184,34.004799999999996,26.25,0.5332823926032755,0.5728143971765458,7.727875979482803,22.335358404565795,66.40737386109242,28.9613452456885,0.5332823926032755,0.5728143971765458,7.727875979482803,
71,184.1392,29.8344,12.75,1.665193599597669,18.947597903397455,3.4684242941594245,32.922931073617676,63.5873674589626,21.840881502789898,1.665193599597669,18.947597903397455,3.4684242941594245,
72,184.7808,46.8368,16.5,2.4669640378853646,15.78834309069702,8.548975099545142,19.45699582688229,67.42880655810094,14.886679041781093,2.4669640378853646,15.78834309069702,8.548975099545142,
73,184.7808,43.308,24.75,18.502372803639275,4.498653098252821,1.5696325790152674,16.959834691140458,67.56640453983852,22.612689549709724,18.502372803639275,4.498653098252821,1.5696325790152674,
74,185.1016,27.909599999999998,15.75,0.7690972273937741,5.404615875424269,0.3893025939256563,32.307577131732174,62.65404313009742,24.904717304332543,0.7690972273937741,5.404615875424269,0.3893025939256563,
75,185.42239999999998,43.308,30.0,3.0329196413825614,7.17008180016863,1.415676494003579,13.806599141890374,67.62121210687388,26.205061145576195,3.0329196413825614,7.17008180016863,1.415676494003579,
76,185.42239999999998,45.2328,18.75,1.9010084343881677,26.055921231973432,2.7499625641048784,19.11182987154615,66.76093449300808,17.282859013530796,1.9010084343881677,26.055921231973432,2.7499625641048784,
77,185.42239999999998,28.871999999999996,24.0,0.4861194256451757,2.7331871735084605,0.18402781391007178,26.81166999288007,63.560015055484996,30.086493006686645,0.4861194256451757,2.7331871735084605,0.18402781391007178,
78,185.42239999999998,40.099999999999994,13.5,7.136097766737239,23.268343456061285,2.801281259108775,25.556516076836225,64.95439302373478,16.489099658262,7.136097766737239,23.268343456061285,2.801281259108775,
79,186.064,34.325599999999994,12.0,0.7690972273937741,10.027349020478582,0.645896068945137,30.146445363216586,62.878688416677505,18.599990156667797,0.7690972273937741,10.027349020478582,0.645896068945137,
80,186.70559999999998,40.4208,26.25,1.5708676656814695,3.6391499506799083,0.18402781391007178,17.724551699291837,65.40048777005552,25.06392918381667,1.5708676656814695,3.6391499506799083,0.18402781391007178,
81,187.0264,32.4008,26.25,0.43895645868707595,6.333808467394985,1.774907359030852,22.959186692276134,63.2540710366151,29.510516928654006,0.43895645868707595,6.333808467394985,1.774907359030852,
82,187.0264,42.0248,14.25,0.4861194256451757,18.064864941025274,0.7998521539568254,23.635848406272245,64.10026363257703,15.763157418838404,0.4861194256451757,18.064864941025274,0.7998521539568254,
83,187.3472,46.1952,19.5,2.608452938759664,10.189957724073457,5.726446874330854,17.781325862836198,65.4046292631788,17.059963593071174,2.608452938759664,10.189957724073457,5.726446874330854,
84,187.3472,30.476,12.0,9.447083147684125,22.130082530897155,13.783481989942548,32.507100010632655,60.86998506199157,20.612177432523705,9.447083147684125,22.130082530897155,13.783481989942548,
85,187.66799999999998,36.891999999999996,27.75,0.627608326519475,9.93442976128151,2.59600647909319,19.0410133874463,63.918978068902476,27.97779882396836,0.627608326519475,9.93442976128151,2.59600647909319,
86,187.9888,47.7992,20.25,1.146400963058572,17.042753089857488,2.544687784089294,16.20129053904209,65.30964516314052,16.61739949942536,1.146400963058572,17.042753089857488,2.544687784089294,
87,188.3096,42.666399999999996,26.25,0.5804453595613752,11.212069575241244,0.2353465089139679,16.030898677431665,64.53384947146708,23.6356223527632,0.5804453595613752,11.212069575241244,0.2353465089139679,
88,188.63039999999998,35.608799999999995,11.25,2.797104806592063,13.535051055168035,11.833371579794495,29.3947363094563,60.866704807091395,17.082199889541528,2.797104806592063,13.535051055168035,11.833371579794495,
89,188.95119999999997,28.551199999999998,12.0,8.739638643312631,33.18747437534868,1.056445628976306,33.55790732080401,59.03174987103969,21.514144784940857,8.739638643312631,33.18747437534868,1.056445628976306,
90,190.2344,42.987199999999994,18.0,8.409497874605933,9.585982539292491,0.3379838989217602,20.38014311843206,61.9811022376166,17.49387787648267,8.409497874605933,9.585982539292491,0.3379838989217602,
91,190.2344,32.721599999999995,12.75,-0.1741621117682206,4.823870505442572,0.18402781391007178,30.202626655453237,58.978749208511374,19.5681482854854,-0.1741621117682206,4.823870505442572,0.18402781391007178,
92,190.55519999999999,32.721599999999995,26.25,2.561289971801564,21.828094938506673,0.9024895439646177,22.273167642741754,60.27123637587178,28.949468688180758,2.561289971801564,21.828094938506673,0.9024895439646177,
93,190.55519999999999,38.1752,27.75,5.626882824078047,10.422255872066136,5.007985144276308,17.808004013903457,61.71628041803359,26.948412526368063,5.626882824078047,10.422255872066136,5.007985144276308,
94,190.55519999999999,40.4208,15.0,24.44490664035984,21.0150514205323,2.0828195290542286,23.77837637420003,60.7562467668169,16.80073307132988,24.44490664035984,21.0150514205323,2.0828195290542286,AVEL
95,191.1968,27.267999999999997,22.5,7.702053370234436,37.13654289122422,3.7763364641828012,27.9663655416999,58.00852860154339,29.311769132230864,7.702053370234436,37.13654289122422,3.7763364641828012,URXR
96,191.83839999999998,25.663999999999998,18.0,0.34463052477087647,3.6623797654791765,10.806997679716572,31.564342423796724,56.555432367168805,26.999934521714422,0.34463052477087647,3.6623797654791765,10.806997679716572,ALA
